200.69 6.08333
201.296 5.90094
201.902 5.98668
202.507 6.2062
203.113 6.05591
203.719 5.83192
204.325 5.89589
204.93 6.14333
205.536 6.26493
206.142 6.17302
206.747 6.02688
207.353 6.17144
207.959 5.99652
208.565 5.87295
209.17 5.98598
209.776 5.92641
210.382 5.85445
210.987 5.89335
211.593 5.93383
212.199 6.05696
212.805 6.12602
213.41 5.85022
214.016 6.05525
214.622 6.20239
215.227 6.24821
215.833 5.85366
216.439 5.95281
217.045 5.83105
217.65 6.05565
218.256 6.16116
218.862 6.17793
219.467 6.01716
220.073 5.69694
220.679 5.92568
221.285 6.14605
221.89 6.14502
222.496 5.57948
223.102 5.80848
223.708 5.875
224.313 5.66812
224.919 5.81606
225.525 5.9546
226.13 6.08005
226.736 6.2069
227.342 6.05818
227.948 5.83356
228.553 6.12631
229.159 6.34403
229.765 6.50464
230.37 6.00765
230.976 6.03147
231.582 6.04387
232.188 5.98716
232.793 5.93449
233.399 5.83903
234.005 5.92174
234.61 6.12566
235.216 6.08498
235.822 6.20561
236.428 6.36871
237.033 6.0333
237.639 6.02565
238.245 5.72965
238.85 5.71315
239.456 6.07726
240.062 6.07651
240.668 5.8798
241.273 5.78528
241.879 5.76967
242.485 5.81008
243.09 5.93538
243.696 6.08713
244.302 6.1618
244.908 5.86202
245.513 5.71028
246.119 5.97898
246.725 5.99572
247.33 5.90522
247.936 5.94182
248.542 6.01212
249.148 5.82861
249.753 5.6807
250.359 6.01443
250.965 6.12734
251.571 5.96162
252.176 5.82797
252.782 6.0503
253.388 6.01678
253.993 5.84669
254.599 5.72434
255.205 6.01184
255.811 6.04579
256.416 5.96244
257.022 5.97058
257.628 5.90881
258.233 5.94947
258.839 5.88658
259.445 5.84793
260.051 5.71705
260.656 6.05329
261.262 5.84484
261.868 5.66645
262.473 5.63072
263.079 5.99335
263.685 6.10545
264.291 5.98102
264.896 6.05299
265.502 6.02529
266.108 5.70479
266.713 6.04227
267.319 5.9065
267.925 5.99126
268.531 6.02223
269.136 5.76554
269.742 6.06151
270.348 6.00021
270.953 5.83821
271.559 5.87741
272.165 5.88534
272.771 5.86724
273.376 5.93375
273.982 5.83971
274.588 5.87714
275.194 6.10289
275.799 6.04007
276.405 5.83185
277.011 5.98111
277.616 5.93675
278.222 5.98724
278.828 5.96931
279.434 5.97416
280.039 5.95188
280.645 5.79192
281.251 5.76305
281.856 6.05929
282.462 6.08965
283.068 5.79608
283.674 5.90913
284.279 6.1484
284.885 6.0846
285.491 6.20336
286.096 6.20876
286.702 6.23317
287.308 6.22542
287.914 6.22125
288.519 6.32196
289.125 6.31624
289.731 6.17102
290.336 6.31674
290.942 6.41001
291.548 6.59679
292.154 6.46012
292.759 6.885
293.365 6.68865
293.971 6.62394
294.576 6.74072
295.182 6.70124
295.788 6.80117
296.394 6.96609
296.999 7.18181
297.605 7.2396
298.211 7.04257
298.816 7.44702
299.422 7.73706
300.028 7.16429
300.634 7.25707
301.239 7.44137
301.845 7.61993
302.451 8.08693
303.057 8.02442
303.662 8.28137
304.268 8.61334
304.874 8.87895
305.479 9.00157
306.085 9.05353
306.691 9.32184
307.297 9.66688
307.902 10.5494
308.508 10.0424
309.114 10.9478
309.719 11.5626
310.325 12.0188
310.931 12.6538
311.537 12.7637
312.142 13.1076
312.748 13.4816
313.354 13.7567
313.959 13.9969
314.565 14.0633
315.171 13.8835
315.777 13.5763
316.382 13.0854
316.988 12.3065
317.594 12.0762
318.199 10.9764
318.805 10.6902
319.411 10.3923
320.017 9.63131
320.622 9.2924
321.228 8.76276
321.834 8.45111
322.439 8.22544
323.045 7.80989
323.651 7.64336
324.257 7.55151
324.862 7.13962
325.468 7.06949
326.074 6.91816
326.68 7.51714
327.285 7.43527
327.891 7.18823
328.497 6.60994
329.102 6.76505
329.708 6.51501
330.314 6.44698
330.92 6.67853
331.525 6.73795
332.131 6.66064
332.737 6.65
333.342 6.5556
333.948 6.33079
334.554 6.81801
335.16 6.57751
335.765 6.36726
336.371 6.62584
336.977 6.50005
337.582 6.62454
338.188 6.66924
338.794 6.48401
339.4 6.54738
340.005 6.69564
340.611 6.66576
341.217 6.6741
341.822 6.70111
342.428 6.50803
343.034 6.59434
343.64 6.5717
344.245 6.2296
344.851 6.36941
345.457 6.48724
346.062 6.49306
346.668 6.75434
347.274 6.61106
347.88 6.697
348.485 6.72849
349.091 6.72578
349.697 6.58347
350.303 6.43564
350.908 6.49295
351.514 6.32454
352.12 6.48263
352.725 6.54283
353.331 6.72159
353.937 6.36272
354.543 6.48934
355.148 6.22733
355.754 6.41592
356.36 6.5786
356.965 6.34993
357.571 6.20158
358.177 6.25016
358.783 6.18085
359.388 6.05
359.994 6.07334
360.6 6.25533
361.205 6.58508
361.811 6.43724
362.417 5.97654
363.023 6.40132
363.628 6.69026
364.234 6.04345
364.84 5.96798
365.445 6.21371
366.051 6.39096
366.657 6.155
367.263 5.98365
367.868 6.02407
368.474 6.10617
369.08 6.20244
369.685 6.23167
370.291 6.16812
370.897 6.25981
371.503 6.13664
372.108 6.2099
372.714 5.92292
373.32 6.08708
373.926 6.07647
374.531 5.84121
375.137 5.91169
375.743 6.06279
376.348 6.29123
376.954 6.24755
377.56 5.93173
378.166 5.8667
378.771 5.89083
379.377 5.89218
379.983 6.12834
380.588 6.03844
381.194 6.00322
381.8 6.10434
382.406 5.89559
383.011 5.95819
383.617 6.23944
384.223 6.1924
384.828 6.09463
385.434 6.0371
386.04 6.01338
386.646 6.11483
387.251 6.08322
387.857 6.03397
388.463 6.12671
389.068 6.31376
389.674 6.28476
390.28 6.02054
390.886 6.22805
391.491 6.35512
392.097 6.45517
392.703 6.02341
393.308 6.48558
393.914 6.28292
394.52 6.107
395.126 6.13744
395.731 6.26317
396.337 6.33478
396.943 5.99489
397.548 5.96039
398.154 6.33488
398.76 6.26983
399.366 6.01952
399.971 6.19014
400.577 6.41915
401.183 6.76772
401.789 6.57043
402.394 6.64823
403 6.49775
403.606 6.33374
404.211 6.58557
404.817 6.6
405.423 6.50301
406.029 6.17404
406.634 6.20284
407.24 6.54126
407.846 6.73187
408.451 6.75833
409.057 6.65196
409.663 6.39336
410.269 6.44237
410.874 6.76419
411.48 6.69521
412.086 6.90405
412.691 6.70509
413.297 6.72436
413.903 6.64776
414.509 6.78123
415.114 6.5662
415.72 6.81282
416.326 6.93871
416.931 7.00925
417.537 6.80625
418.143 6.98329
418.749 6.99054
419.354 7.01322
419.96 7.03085
420.566 6.74391
421.171 6.65137
421.777 6.97677
422.383 7.08603
422.989 7.20137
423.594 7.21396
424.2 6.95751
424.806 7.10641
425.411 7.37459
426.017 6.9261
426.623 7.30124
427.229 7.3011
427.834 7.35034
428.44 7.5184
429.046 7.69878
429.652 7.86201
430.257 7.97716
430.863 8.05537
431.469 8.12254
432.074 8.34292
432.68 8.51005
433.286 8.21909
433.892 8.10952
434.497 8.64969
435.103 9.03991
435.709 9.20475
436.314 9.50157
436.92 9.74637
437.526 10.4191
438.132 10.8853
438.737 11.0526
439.343 11.2506
439.949 12.162
440.554 12.3819
441.16 12.6924
441.766 13.1898
442.372 14.0031
442.977 14.8788
443.583 15.8501
444.189 16.7883
444.794 17.3131
445.4 18.2759
446.006 18.751
446.612 19.123
447.217 20.0545
447.823 19.9128
448.429 20.2438
449.034 20.4731
449.64 19.0174
450.246 19.0021
450.852 18.6415
451.457 18.0452
452.063 17.4183
452.669 16.7061
453.275 15.9848
453.88 15.1959
454.486 14.3776
455.092 13.7879
455.697 13.3137
456.303 12.7031
456.909 12.3919
457.515 12.3887
458.12 11.5821
458.726 11.0392
459.332 11.1612
459.937 10.8032
460.543 10.0904
461.149 10.5655
461.755 9.93564
462.36 9.99067
462.966 9.89242
463.572 9.41199
464.177 9.23292
464.783 9.07092
465.389 8.91663
465.995 8.65026
466.6 8.5972
467.206 8.65567
467.812 8.65631
468.417 8.62822
469.023 8.44094
469.629 8.25024
470.235 7.9473
470.84 7.64792
471.446 7.95124
472.052 7.92923
472.658 7.69278
473.263 8.14836
473.869 7.85403
474.475 7.83407
475.08 8.20131
475.686 7.65179
476.292 7.82548
476.898 7.72282
477.503 7.62735
478.109 7.60083
478.715 7.55745
479.32 7.48381
479.926 7.45405
480.532 7.38806
481.138 7.26818
481.743 7.22144
482.349 7.07342
482.955 6.816
483.56 7.0192
484.166 7.45813
484.772 7.27552
485.378 7.37049
485.983 7.15411
486.589 7.44784
487.195 7.48954
487.8 7.27298
488.406 7.40015
489.012 7.12667
489.618 7.21871
490.223 7.36347
490.829 7.20666
491.435 7.14849
492.04 7.13215
492.646 7.13118
493.252 7.17103
493.858 7.30317
494.463 7.23891
495.069 7.1121
495.675 7.32005
496.28 7.26779
496.886 7.3797
497.492 7.50511
498.098 7.4432
498.703 7.52094
499.309 7.32976
499.915 6.95419
500.521 7.12172
501.126 7.23451
501.732 7.055
502.338 7.0689
502.943 7.29128
503.549 7.30964
504.155 7.22132
504.761 7.38547
505.366 7.49104
505.972 7.57995
506.578 7.48466
507.183 7.54709
507.789 7.68115
508.395 7.57333
509.001 7.52556
509.606 7.57137
510.212 7.53589
510.818 7.49537
511.423 7.42819
512.029 7.64629
512.635 7.72403
513.241 8.04797
513.846 7.85959
514.452 7.50018
515.058 7.92363
515.663 7.68351
516.269 7.61441
516.875 7.64407
517.481 7.62957
518.086 7.41801
518.692 7.677
519.298 7.60644
519.903 7.8192
520.509 7.61614
521.115 7.52605
521.721 7.61608
522.326 7.41039
522.932 7.19313
523.538 7.24807
524.143 7.26827
524.749 7.27984
525.355 7.41407
525.961 7.14719
526.566 7.36333
527.172 7.17313
527.778 6.97654
528.384 7.41089
528.989 7.22254
529.595 7.30673
530.201 7.25071
530.806 7.08409
531.412 7.075
532.018 7.12589
532.624 7.13333
533.229 6.96728
533.835 7.12074
534.441 7.02111
535.046 6.87868
535.652 7.16994
536.258 6.91433
536.864 6.82838
537.469 6.81942
538.075 6.93143
538.681 6.98821
539.286 6.87784
539.892 7.03846
540.498 7.05361
541.104 7.06573
541.709 6.94904
542.315 6.76987
542.921 6.73333
543.526 6.842
544.132 6.69346
544.738 6.56771
545.344 6.90692
545.949 6.8869
546.555 7.07192
547.161 6.45225
547.766 6.9558
548.372 7.0887
548.978 6.78524
549.584 7.1607
550.189 7.08057
550.795 6.83558
551.401 6.7783
552.007 6.78333
552.612 6.76241
553.218 6.70063
553.824 6.61547
554.429 6.575
555.035 6.60352
555.641 6.69379
556.247 6.80515
556.852 6.81007
557.458 6.72748
558.064 6.71404
558.669 6.73419
559.275 6.87252
559.881 7.00017
560.487 6.67423
561.092 6.7265
561.698 6.80528
562.304 6.5952
562.909 6.74255
563.515 6.93114
564.121 6.76997
564.727 7.04988
565.332 7.18815
565.938 6.86327
566.544 6.78143
567.149 6.59205
567.755 6.88826
568.361 7.12049
568.967 6.91615
569.572 6.59457
570.178 6.59475
570.784 6.68094
571.389 6.7929
571.995 6.70581
572.601 6.55285
573.207 6.82345
573.812 6.839
574.418 6.42763
575.024 6.48324
575.63 6.79991
576.235 6.89762
576.841 6.75917
577.447 6.84475
578.052 6.94691
578.658 6.90047
579.264 6.8984
579.87 6.66826
580.475 7.15681
581.081 6.67329
581.687 7.06904
582.292 6.3705
582.898 6.54009
583.504 6.63767
584.11 6.78104
584.715 6.91939
585.321 6.69377
585.927 6.67934
586.532 6.93979
587.138 6.77918
587.744 6.55385
588.35 6.51805
588.955 6.70366
589.561 6.67863
590.167 6.9205
590.772 6.98087
591.378 6.64035
591.984 6.46442
592.59 6.63
593.195 6.68944
593.801 6.58153
594.407 6.59676
595.012 6.68512
595.618 6.69388
596.224 6.60418
596.83 6.57026
597.435 6.65
598.041 6.71961
598.647 6.94379
599.253 6.94755
599.858 6.6888
600.464 7.0361
601.07 7.02185
601.675 6.48395
602.281 6.69968
602.887 6.25418
603.492 6.77543
604.098 6.8078
604.704 6.70447
605.31 6.86279
605.915 6.58848
606.521 6.90165
607.127 6.66631
607.733 6.87046
608.338 6.42656
608.944 6.77477
609.55 6.5011
610.155 6.64513
610.761 6.94844
611.367 6.81112
611.973 6.7
612.578 6.6386
613.184 6.69792
613.79 6.86028
614.395 6.88408
615.001 7.0547
615.607 7.0278
616.213 6.9332
616.818 6.92686
617.424 6.74627
618.03 6.98567
618.635 7.09096
619.241 6.89795
619.847 7.03908
620.453 7.08353
621.058 7.25861
621.664 7.37049
622.27 7.20414
622.875 7.02046
623.481 7.29067
624.087 6.99848
624.693 7.25795
625.298 6.97305
625.904 6.72507
626.51 6.95269
627.115 6.99658
627.721 6.5001
628.327 7.03563
628.933 6.55867
629.538 6.89688
630.144 6.94764
630.75 6.99414
631.356 6.71325
631.961 6.70855
632.567 6.70987
633.173 6.79423
633.778 6.87445
634.384 6.88545
634.99 6.6485
635.596 6.69258
636.201 6.84044
636.807 6.79036
637.413 6.69938
638.018 6.80259
638.624 6.79967
639.23 6.82699
639.836 6.84607
640.441 6.82152
641.047 6.57117
641.653 6.51102
642.258 6.70893
642.864 6.7443
643.47 6.76486
644.076 6.78007
644.681 6.96666
645.287 7.04802
645.893 6.99803
646.498 7.01218
647.104 6.80051
647.71 6.95602
648.316 6.81086
648.921 6.49096
649.527 6.77987
650.133 6.77364
650.739 6.43389
651.344 6.53395
651.95 6.77364
652.556 6.31015
653.161 6.48565
653.767 6.80503
654.373 6.74745
654.979 6.45178
655.584 6.69216
656.19 6.3497
656.796 6.2272
657.401 6.51377
658.007 6.59595
658.613 6.79301
659.219 6.46074
659.824 6.69209
660.43 6.65967
661.036 6.2227
661.641 6.63746
662.247 6.41363
662.853 6.36166
663.459 6.40573
664.064 6.67795
664.67 6.73345
665.276 6.54922
665.881 6.59588
666.487 6.8149
667.093 6.64927
667.699 6.46196
668.304 6.52134
668.91 6.55417
669.516 6.69376
670.121 6.63402
670.727 6.6543
671.333 6.51761
671.939 6.39197
672.544 6.44167
673.15 6.69149
673.756 6.76474
674.362 6.60757
674.967 6.7747
675.573 6.63882
676.179 6.21432
676.784 6.10462
677.39 6.15594
677.996 6.32851
678.602 6.37342
679.207 6.50006
679.813 6.40006
680.419 6.37127
681.024 6.2826
681.63 6.36529
682.236 6.33155
682.842 5.96454
683.447 6.32358
684.053 6.2688
684.659 6.38168

